# 0=Wavelength (micron), 1=wavelength half-width, 2=timing bias (day), 3=timing bias uncertainty (day)
0.873999 0.009341 0.962165 1.152158
0.892733 0.009504 -1.010183 0.815370
0.912015 0.009779 0.743393 0.947502
0.931847 0.009941 -0.503767 0.777979
0.951780 0.010105 0.804533 0.760446
0.972267 0.010382 0.117175 0.717371
0.993308 0.010660 1.108112 0.690671
1.014907 0.010939 -0.344854 0.627068
1.037066 0.011103 -0.643066 0.573258
1.059321 0.011267 0.181190 0.605480
1.082135 0.011547 0.653688 0.766518
1.105509 0.011827 -0.812744 0.523063
1.129444 0.012108 -0.411528 0.499382
1.153940 0.012270 0.334124 0.537431
1.178524 0.012431 -0.850961 0.480415
1.203665 0.012710 0.827066 0.494091
1.229364 0.012989 -0.118003 0.476447
1.255621 0.013267 -0.301861 0.480151
1.282432 0.013545 0.048340 0.461242
1.309799 0.013821 0.155219 0.505851
1.337718 0.014097 -0.596811 0.431614
1.366189 0.014372 -0.096362 0.506763
1.395208 0.014646 0.698125 0.482326
1.424773 0.014919 1.334616 0.493960
1.454882 0.015190 0.469136 0.499054
1.485532 0.015581 0.240815 0.557998
1.517206 0.015971 -0.503356 0.571931
1.549416 0.016238 -0.291961 0.692229
1.582158 0.016503 -0.296565 0.717384
1.615428 0.016766 -0.228705 0.701239
1.649221 0.017150 -0.754109 0.962655
1.684026 0.017654 0.056524 0.859660
1.719838 0.018034 -0.341587 0.916839
1.756163 0.018290 -1.420217 0.947816
1.792998 0.018667 1.160953 0.687116
1.830830 0.019165 -1.419536 0.915884
1.869656 0.019538 0.461318 0.744917
1.908982 0.019787 -0.844331 0.947525
1.948804 0.020158 0.501242 0.746677
1.989613 0.020651 -1.541300 0.860879
2.031407 0.021143 -2.346293 1.085566
2.074186 0.021635 -0.003185 0.985230
2.117949 0.022005 -1.632630 0.901132
2.162208 0.022254 -0.185129 1.174972
2.206964 0.022627 0.867607 0.881895
2.252716 0.023126 0.437002 1.006520
2.299470 0.023630 0.310592 1.119218
2.347236 0.024139 -1.628218 1.313334
2.396026 0.024655 -1.198657 1.145318
2.445856 0.025180 -0.558199 1.306990
2.496746 0.025716 -1.299615 1.245353
2.548720 0.026265 0.556665 1.007699
2.601806 0.026830 0.730342 1.334271
2.656038 0.027413 0.437993 1.315543
2.711457 0.028017 -2.045790 1.859614