# 0=Wavelength (micron), 1=wavelength half-width, 2=Evening depth (ppm), 3=Evening depth uncertainty (ppm)
0.873999 0.009341 720.600716 67.322668
0.892733 0.009504 654.284563 80.805361
0.912015 0.009779 718.679153 70.637188
0.931847 0.009941 660.340512 79.113390
0.951780 0.010105 733.912810 58.981075
0.972267 0.010382 676.329717 81.223679
0.993308 0.010660 731.478847 58.875049
1.014907 0.010939 674.839702 71.966845
1.037066 0.011103 621.500539 70.542279
1.059321 0.011267 679.042604 76.544102
1.082135 0.011547 647.458957 70.242989
1.105509 0.011827 586.411258 58.808863
1.129444 0.012108 605.991982 67.202134
1.153940 0.012270 669.928990 70.051300
1.178524 0.012431 573.115167 52.756618
1.203665 0.012710 719.202205 53.790252
1.229364 0.012989 600.506669 56.894494
1.255621 0.013267 593.295994 57.379337
1.282432 0.013545 632.269515 65.894148
1.309799 0.013821 639.511710 63.793635
1.337718 0.014097 584.830381 57.135956
1.366189 0.014372 661.768477 74.088169
1.395208 0.014646 743.098792 49.450646
1.424773 0.014919 748.693276 39.600047
1.454882 0.015190 720.763456 62.382241
1.485532 0.015581 618.206735 59.170059
1.517206 0.015971 602.254500 64.997978
1.549416 0.016238 567.887435 44.306473
1.582158 0.016503 592.921757 61.102384
1.615428 0.016766 574.554335 48.337710
1.649221 0.017150 559.647677 42.585158
1.684026 0.017654 565.839704 45.829528
1.719838 0.018034 577.180534 52.945917
1.756163 0.018290 561.703824 44.751555
1.792998 0.018667 632.906397 62.542877
1.830830 0.019165 577.272405 56.125202
1.869656 0.019538 629.864910 66.846851
1.908982 0.019787 611.916446 76.787535
1.948804 0.020158 683.434762 81.496461
1.989613 0.020651 553.322966 42.341848
2.031407 0.021143 555.371410 42.779664
2.074186 0.021635 569.362670 49.972876
2.117949 0.022005 550.510593 39.256695
2.162208 0.022254 555.475635 41.038712
2.206964 0.022627 555.784022 43.022723
2.252716 0.023126 579.247792 58.110711
2.299470 0.023630 612.016596 75.148562
2.347236 0.024139 550.873513 38.079560
2.396026 0.024655 572.398808 56.646307
2.445856 0.025180 615.584756 81.231739
2.496746 0.025716 562.982465 48.539225
2.548720 0.026265 689.305309 82.339787
2.601806 0.026830 688.483308 87.357684
2.656038 0.027413 708.405791 74.940860
2.711457 0.028017 628.806484 87.476674