# 0=Wavelength (micron), 1=Wavelength half-width (micron), 2=Transit Depth, 3=Transit Depth Uncertainty
0.873999 0.009341 0.001314 0.000083
0.892733 0.009504 0.001355 0.000065
0.912015 0.009779 0.001332 0.000067
0.931847 0.009941 0.001362 0.000060
0.951780 0.010105 0.001359 0.000056
0.972267 0.010382 0.001298 0.000055
0.993308 0.010660 0.001301 0.000050
1.014907 0.010939 0.001372 0.000049
1.037066 0.011103 0.001327 0.000045
1.059321 0.011267 0.001267 0.000041
1.082135 0.011547 0.001220 0.000044
1.105509 0.011827 0.001283 0.000036
1.129444 0.012108 0.001265 0.000037
1.153940 0.012270 0.001278 0.000035
1.178524 0.012431 0.001294 0.000034
1.203665 0.012710 0.001267 0.000035
1.229364 0.012989 0.001203 0.000032
1.255621 0.013267 0.001207 0.000032
1.282432 0.013545 0.001237 0.000033
1.309799 0.013821 0.001235 0.000034
1.337718 0.014097 0.001270 0.000032
1.366189 0.014372 0.001289 0.000034
1.395208 0.014646 0.001341 0.000035
1.424773 0.014919 0.001292 0.000036
1.454882 0.015190 0.001334 0.000035
1.485532 0.015581 0.001176 0.000038
1.517206 0.015971 0.001288 0.000040
1.549416 0.016238 0.001106 0.000044
1.582158 0.016503 0.001192 0.000052
1.615428 0.016766 0.001122 0.000053
1.649221 0.017150 0.001082 0.000059
1.684026 0.017654 0.001087 0.000064
1.719838 0.018034 0.000997 0.000100
1.756163 0.018290 0.001144 0.000059
1.792998 0.018667 0.001118 0.000070
1.830830 0.019165 0.001181 0.000063
1.869656 0.019538 0.001174 0.000060
1.908982 0.019787 0.001231 0.000067
1.948804 0.020158 0.001307 0.000064
1.989613 0.020651 0.001179 0.000065
2.031407 0.021143 0.001150 0.000073
2.074186 0.021635 0.000911 0.000104
2.117949 0.022005 0.001055 0.000082
2.162208 0.022254 0.001026 0.000081
2.206964 0.022627 0.000929 0.000158
2.252716 0.023126 0.000967 0.000168
2.299470 0.023630 0.001101 0.000139
2.347236 0.024139 0.001057 0.000095
2.396026 0.024655 0.001177 0.000107
2.445856 0.025180 0.001252 0.000099
2.496746 0.025716 0.001048 0.000178
2.548720 0.026265 0.001120 0.000094
2.601806 0.026830 0.001094 0.000108
2.656038 0.027413 0.001157 0.000117
2.711457 0.028017 0.001003 0.000115