# V1298 Tau c, NIRISS SOSS Order 1 at R=50, with spots modeled using gaussian functions
# 0=Wavelength (micron), 1=Wavelength half-width (micron), 2=Transit Depth, 3=Transit Depth Uncertainty
0.873999 0.009341 0.001430 0.000062
0.892733 0.009504 0.001412 0.000064
0.912015 0.009779 0.001401 0.000054
0.931847 0.009941 0.001408 0.000055
0.951780 0.010105 0.001416 0.000048
0.972267 0.010382 0.001347 0.000046
0.993308 0.010660 0.001360 0.000045
1.014907 0.010939 0.001407 0.000044
1.037066 0.011103 0.001351 0.000040
1.059321 0.011267 0.001331 0.000037
1.082135 0.011547 0.001269 0.000037
1.105509 0.011827 0.001342 0.000032
1.129444 0.012108 0.001323 0.000033
1.153940 0.012270 0.001297 0.000032
1.178524 0.012431 0.001315 0.000031
1.203665 0.012710 0.001311 0.000030
1.229364 0.012989 0.001224 0.000028
1.255621 0.013267 0.001245 0.000029
1.282432 0.013545 0.001271 0.000029
1.309799 0.013821 0.001265 0.000030
1.337718 0.014097 0.001308 0.000029
1.366189 0.014372 0.001348 0.000031
1.395208 0.014646 0.001406 0.000031
1.424773 0.014919 0.001313 0.000033
1.454882 0.015190 0.001351 0.000032
1.485532 0.015581 0.001235 0.000034
1.517206 0.015971 0.001313 0.000035
1.549416 0.016238 0.001166 0.000038
1.582158 0.016503 0.001219 0.000043
1.615428 0.016766 0.001167 0.000046
1.649221 0.017150 0.001159 0.000051
1.684026 0.017654 0.001128 0.000057
1.719838 0.018034 0.001179 0.000056
1.756163 0.018290 0.001181 0.000052
1.792998 0.018667 0.001215 0.000054
1.830830 0.019165 0.001233 0.000057
1.869656 0.019538 0.001229 0.000053
1.908982 0.019787 0.001301 0.000059
1.948804 0.020158 0.001307 0.000058
1.989613 0.020651 0.001159 0.000059
2.031407 0.021143 0.001157 0.000065
2.074186 0.021635 0.001117 0.000065
2.117949 0.022005 0.001124 0.000066
2.162208 0.022254 0.001036 0.000070
2.206964 0.022627 0.001089 0.000075
2.252716 0.023126 0.001113 0.000076
2.299470 0.023630 0.001218 0.000079
2.347236 0.024139 0.001049 0.000083
2.396026 0.024655 0.001187 0.000084
2.445856 0.025180 0.001255 0.000090
2.496746 0.025716 0.001115 0.000091
2.548720 0.026265 0.001394 0.000101
2.601806 0.026830 0.001381 0.000105
2.656038 0.027413 0.001402 0.000111
2.711457 0.028017 0.001338 0.000123