# Wavelength. Wavelegnth error.       RpRs2 [ppm]. RpRs2_err[ppm] 
1.134815384845427655e+00 9.312954789630269181e-03 1.345323738778843108e+03 6.634503176182086293e+01
1.167411670373926125e+00 9.313488311873566877e-03 1.256073212510910707e+03 5.951249038786797030e+01
1.200009747078473632e+00 9.313978318571338247e-03 1.328844139903453652e+03 5.985503779573082284e+01
1.232609462652584975e+00 9.314424808543973061e-03 1.250807106814113695e+03 5.959981922885024375e+01
1.265210664785652028e+00 9.314827780614886449e-03 1.313476490785933265e+03 6.227396184345371211e+01
1.297813201162951291e+00 9.315187233609589085e-03 1.179244911586188664e+03 6.354581620882692761e+01
1.330416919465654990e+00 9.315503166356764453e-03 1.273721149561612265e+03 6.671698129890026507e+01
1.363021667370839740e+00 9.315775577687555875e-03 1.399836383262686695e+03 6.748971552476972136e+01
1.395627292551495646e+00 9.316004466435824985e-03 1.288843172630986373e+03 6.777252849960308367e+01
1.428233642676537851e+00 9.316189831438509081e-03 1.367410360229181379e+03 6.375615065434853790e+01
1.460840565410813641e+00 9.316331671535121525e-03 1.317073976655771958e+03 6.534538698923385880e+01
1.493447908415114656e+00 9.316429985568110833e-03 1.285604955592875513e+03 6.246218978252387188e+01
1.526055519346185774e+00 9.316484772382657709e-03 1.282309244622834285e+03 6.006620816323660250e+01
1.558663245856735768e+00 9.316496030827249239e-03 1.181106555122279815e+03 6.944802383012827818e+01
1.591270935595447522e+00 9.316463759752762960e-03 1.042542991521149816e+03 6.746339474941839853e+01
1.623878436206986908e+00 9.316387958013604836e-03 1.210875749467252035e+03 6.611709579027954931e+01
1.644840246953254592e+00 2.329079310098736144e-03 1.244161974244468865e+03 8.955155038930064393e+01
